wavenumber / cm-1,Absorbance
3999.881,-0.00253651
3999.76,-0.002531405
3999.639,-0.002508279
3999.519,-0.002472864
3999.398,-0.002434052
3999.278,-0.002401167
3999.157,-0.002380243
3999.037,-0.002370719
3998.916,-0.002365018
3998.796,-0.002351639
3998.675,-0.002321253
3998.555,-0.002270364
3998.434,-0.002204238
3998.314,-0.002133948
3998.193,-0.002073474
3998.073,-0.002032318
3997.952,-0.002011936
3997.832,-0.002006198
3997.711,-0.002003691
3997.59,-0.001994885
3997.47,-0.001975326
3997.349,-0.001948213
3997.229,-0.001922087
3997.108,-0.001907473
3996.988,-0.001912785
3996.867,-0.001939801
3996.747,-0.001986244
3996.626,-0.002046235
3996.506,-0.002114231
3996.385,-0.002186766
3996.265,-0.002262321
3996.144,-0.002339676
3996.024,-0.002416819
3995.903,-0.00249016
3995.782,-0.002555451
3995.662,-0.002609337
3995.542,-0.002650834
3995.421,-0.002682086
3995.3,-0.002706585
3995.18,-0.002727889
3995.059,-0.002747052
3994.939,-0.002763679
3994.818,-0.002774938
3994.698,-0.002778593
3994.577,-0.002773852
3994.457,-0.00276167
3994.336,-0.002743858
3994.216,-0.00272216
3994.095,-0.002696838
3993.975,-0.002668024
3993.854,-0.002636343
3993.733,-0.002603903
3993.613,-0.002575675
3993.492,-0.002557032
3993.372,-0.002552025
3993.251,-0.002560524
3993.131,-0.002577981
3993.01,-0.002596657
3992.89,-0.002609337
3992.769,-0.002611379
3992.649,-0.002603672
3992.528,-0.002591716
3992.408,-0.002582362
3992.287,-0.002580386
3992.167,-0.002585853
3992.046,-0.002594285
3991.926,-0.002598271
3991.805,-0.002590992
3991.685,-0.002569121
3991.564,-0.002533315
3991.443,-0.002486668
3991.323,-0.002433195
3991.202,-0.002375168
3991.082,-0.002313376
3990.961,-0.002248015
3990.841,-0.002181161
3990.72,-0.002118056
3990.6,-0.002065791
3990.479,-0.002032351
3990.359,-0.002022688
3990.238,-0.002037166
3990.118,-0.002071298
3989.997,-0.002117792
3989.876,-0.002169919
3989.756,-0.002222501
3989.635,-0.002274187
3989.515,-0.002325208
3989.395,-0.002375465
3989.274,-0.002423145
3989.153,-0.002463803
3989.033,-0.002491214
3988.912,-0.002499582
3988.792,-0.002485284
3988.671,-0.002447066
3988.551,-0.002386636
3988.43,-0.002307971
3988.31,-0.002217359
3988.189,-0.002123859
3988.069,-0.002038485
3987.948,-0.001975062
3987.828,-0.001945772
3987.707,-0.001957416
3987.586,-0.002007781
3987.466,-0.002084917
3987.345,-0.002168699
3987.225,-0.002236511
3987.104,-0.002272374
3986.984,-0.002270628
3986.863,-0.002239412
3986.743,-0.002195172
3986.622,-0.002157457
3986.502,-0.002139949
3986.381,-0.002145258
3986.261,-0.002165237
3986.14,-0.002184722
3986.02,-0.002189436
3985.899,-0.002170908
3985.779,-0.002129003
3985.658,-0.002070803
3985.538,-0.002006758
3985.417,-0.001946036
3985.296,-0.001893915
3985.176,-0.001853302
3985.055,-0.001824696
3984.935,-0.001809749
3984.814,-0.00181031
3984.694,-0.001827633
3984.573,-0.001859736
3984.453,-0.001900645
3984.332,-0.001942341
3984.212,-0.001977074
3984.091,-0.002001646
3983.971,-0.002018599
3983.85,-0.002035748
3983.729,-0.00206157
3983.609,-0.002100976
3983.489,-0.00215205
3983.368,-0.002206282
3983.248,-0.002253355
3983.127,-0.002285592
3983.006,-0.002301841
3982.886,-0.002307872
3982.765,-0.002314563
3982.645,-0.002331404
3982.524,-0.002362382
3982.404,-0.002404957
3982.283,-0.002451053
3982.163,-0.002491675
3982.042,-0.002520501
3981.922,-0.002536082
3981.801,-0.002540101
3981.681,-0.002534732
3981.56,-0.002519315
3981.439,-0.002490325
3981.319,-0.002443079
3981.198,-0.002375432
3981.078,-0.002290964
3980.958,-0.002200019
3980.837,-0.002116407
3980.716,-0.002052468
3980.596,-0.002015762
3980.475,-0.00200567
3980.355,-0.002015037
3980.234,-0.002033538
3980.114,-0.002052105
3979.993,-0.002065494
3979.873,-0.002072716
3979.752,-0.00207476
3979.632,-0.002071891
3979.511,-0.002063417
3979.391,-0.002047356
3979.27,-0.002023447
3979.149,-0.001995149
3979.029,-0.001969785
3978.908,-0.001956954
3978.788,-0.001965728
3978.667,-0.001999997
3978.547,-0.00205847
3978.426,-0.002134575
3978.306,-0.002220622
3978.185,-0.00230919
3978.065,-0.002395203
3977.944,-0.002476158
3977.824,-0.002549094
3977.703,-0.002609337
3977.583,-0.002649714
3977.462,-0.002663513
3977.342,-0.002646981
3977.221,-0.002602519
3977.101,-0.00253964
3976.98,-0.002472962
3976.859,-0.002416621
3976.739,-0.002381231
3976.618,-0.002369994
3976.498,-0.002378496
3976.377,-0.002396983
3976.257,-0.002414974
3976.136,-0.002424002
3976.016,-0.00241985
3975.895,-0.002401662
3975.775,-0.002371642
3975.654,-0.002333052
3975.534,-0.002288591
3975.413,-0.002241258
3975.292,-0.002193986
3975.172,-0.002149511
3975.052,-0.002110175
3974.931,-0.002076871
3974.811,-0.002049533
3974.69,-0.00202747
3974.569,-0.002010914
3974.449,-0.002002108
3974.328,-0.002005142
3974.208,-0.002025491
3974.087,-0.00206589
3973.967,-0.002125376
3973.846,-0.002197546
3973.726,-0.002272902
3973.605,-0.002340467
3973.485,-0.002393127
3973.364,-0.002428615
3973.244,-0.0024499
3973.123,-0.002462321
3973.002,-0.002470755
3972.882,-0.002477311
3972.761,-0.00248054
3972.641,-0.002476784
3972.52,-0.002463342
3972.4,-0.002440707
3972.279,-0.002411316
3972.159,-0.002379485
3972.038,-0.002348541
3971.918,-0.002319407
3971.797,-0.002289778
3971.677,-0.002258201
3971.556,-0.002224281
3971.436,-0.002191085
3971.315,-0.00216349
3971.195,-0.002145455
3971.074,-0.002136949
3970.954,-0.00213319
3970.833,-0.002125211
3970.712,-0.002104438
3970.592,-0.002067868
3970.471,-0.002019885
3970.351,-0.001972885
3970.23,-0.001941517
3970.11,-0.001937591
3969.989,-0.001965365
3969.869,-0.002019423
3969.748,-0.002086368
3969.628,-0.002151159
3969.507,-0.00220259
3969.387,-0.002236149
3969.266,-0.002253158
3969.146,-0.002259091
3969.025,-0.002257739
3968.905,-0.002248938
3968.784,-0.002228501
3968.663,-0.002190854
3968.543,-0.002133355
3968.422,-0.002059162
3968.302,-0.00197846
3968.181,-0.0019049
3968.061,-0.001852543
3967.94,-0.001830867
3967.82,-0.001842744
3967.699,-0.00188448
3967.579,-0.001947058
3967.458,-0.002019852
3967.338,-0.002092897
3967.217,-0.002159402
3967.097,-0.002216139
3966.976,-0.002263013
3966.855,-0.002302665
3966.735,-0.002338588
3966.615,-0.002374344
3966.494,-0.002410987
3966.373,-0.002447066
3966.253,-0.002478366
3966.132,-0.002498824
3966.012,-0.002502975
3965.891,-0.002489205
3965.771,-0.002459751
3965.65,-0.002421201
3965.53,-0.00238222
3965.409,-0.002349628
3965.289,-0.00232623
3965.168,-0.002309289
3965.048,-0.002292909
3964.927,-0.002271188
3964.806,-0.002241423
3964.686,-0.002205986
3964.565,-0.002171864
3964.445,-0.002147928
3964.324,-0.002140774
3964.204,-0.002152149
3964.083,-0.002178788
3963.963,-0.00221426
3963.842,-0.002251575
3963.722,-0.002285822
3963.601,-0.002315024
3963.481,-0.002339214
3963.36,-0.00235846
3963.24,-0.002371444
3963.119,-0.002375629
3962.999,-0.002368116
3962.878,-0.002348112
3962.758,-0.002317957
3962.637,-0.002282296
3962.516,-0.002246664
3962.396,-0.002214952
3962.275,-0.002188019
3962.155,-0.002164149
3962.034,-0.002140807
3961.914,-0.002116968
3961.793,-0.002094875
3961.673,-0.002078783
3961.552,-0.002073013
3961.432,-0.002078751
3961.311,-0.002092402
3961.191,-0.002106251
3961.07,-0.002111
3960.949,-0.002100019
3960.829,-0.002071463
3960.708,-0.00203024
3960.588,-0.001986342
3960.468,-0.001951511
3960.347,-0.001935744
3960.226,-0.001945772
3960.106,-0.001983704
3959.985,-0.002046994
3959.865,-0.00212986
3959.744,-0.002223754
3959.624,-0.002316804
3959.503,-0.002395137
3959.383,-0.002445287
3959.262,-0.002456028
3959.142,-0.002422256
3959.021,-0.002347519
3958.901,-0.002244357
3958.78,-0.002131608
3958.659,-0.002029284
3958.539,-0.001954018
3958.418,-0.001915523
3958.298,-0.00191417
3958.177,-0.001943858
3958.057,-0.001994687
3957.936,-0.002057085
3957.816,-0.002123364
3957.695,-0.002188117
3957.575,-0.002248312
3957.454,-0.002301313
3957.334,-0.002344454
3957.213,-0.002375629
3957.093,-0.002392831
3956.972,-0.002394709
3956.852,-0.002380869
3956.731,-0.002350123
3956.611,-0.002302137
3956.49,-0.002237039
3956.369,-0.002157984
3956.249,-0.002071792
3956.128,-0.001989806
3956.008,-0.001926046
3955.887,-0.001892694
3955.767,-0.001896818
3955.646,-0.001937525
3955.526,-0.002006494
3955.405,-0.002089764
3955.285,-0.002172227
3955.164,-0.002243598
3955.044,-0.002297194
3954.923,-0.002331239
3954.802,-0.002346234
3954.682,-0.00234195
3954.562,-0.002317759
3954.441,-0.002273363
3954.321,-0.002211128
3954.2,-0.0021384
3954.079,-0.002065197
3953.959,-0.002002306
3953.838,-0.001956294
3953.718,-0.001926046
3953.597,-0.001902789
3953.477,-0.001874186
3953.356,-0.00182991
3953.236,-0.001766753
3953.115,-0.001690121
3952.995,-0.001612849
3952.874,-0.001549001
3952.754,-0.001507927
3952.633,-0.001490856
3952.512,-0.001491153
3952.392,-0.001499771
3952.271,-0.001509314
3952.151,-0.001518856
3952.031,-0.001533417
3951.91,-0.001561117
3951.789,-0.001608261
3951.669,-0.001675467
3951.548,-0.00175715
3951.428,-0.001843965
3951.307,-0.001927233
3951.187,-0.002001712
3951.066,-0.002067308
3950.946,-0.002125673
3950.825,-0.00217859
3950.705,-0.002223589
3950.584,-0.002255465
3950.464,-0.002267727
3950.343,-0.002257542
3950.222,-0.002227248
3950.102,-0.002185579
3949.981,-0.00214384
3949.861,-0.002111593
3949.74,-0.002092963
3949.62,-0.002085082
3949.499,-0.002081685
3949.379,-0.002075915
3949.258,-0.00206467
3949.138,-0.002049929
3949.017,-0.002036836
3948.897,-0.00203057
3948.776,-0.002032417
3948.656,-0.002039376
3948.535,-0.002045147
3948.415,-0.002042476
3948.294,-0.002027635
3948.174,-0.002001086
3948.053,-0.0019683
3947.932,-0.001936799
3947.812,-0.001913609
3947.691,-0.001904405
3947.571,-0.001912026
3947.45,-0.001937789
3947.33,-0.001981197
3947.209,-0.002039178
3947.089,-0.002106779
3946.968,-0.002174502
3946.848,-0.002229457
3946.727,-0.00225919
3946.607,-0.002253355
3946.486,-0.002208821
3946.365,-0.00213019
3946.245,-0.002030339
3946.125,-0.001925881
3946.004,-0.001832747
3945.884,-0.001763453
3945.763,-0.001725337
3945.642,-0.001719957
3945.522,-0.001745666
3945.401,-0.001798498
3945.281,-0.001872735
3945.16,-0.001959658
3945.04,-0.002049005
3944.919,-0.002129168
3944.799,-0.002189535
3944.678,-0.002224875
3944.558,-0.002236478
3944.437,-0.002232918
3944.317,-0.002225303
3944.196,-0.002224051
3944.075,-0.00223427
3943.955,-0.002253059
3943.834,-0.002272737
3943.714,-0.002284372
3943.593,-0.002283911
3943.473,-0.002273759
3943.352,-0.002262123
3943.232,-0.002259387
3943.111,-0.002272276
3942.991,-0.002300127
3942.87,-0.002334996
3942.75,-0.00236403
3942.629,-0.0023753
3942.509,-0.002362909
3942.388,-0.002327746
3942.268,-0.002277022
3942.147,-0.002219073
3942.027,-0.002161677
3941.906,-0.002109648
3941.785,-0.002065593
3941.665,-0.002031329
3941.544,-0.002009232
3941.424,-0.002000525
3941.303,-0.002004186
3941.183,-0.002014443
3941.062,-0.002020709
3940.942,-0.002011178
3940.821,-0.001976711
3940.701,-0.001917139
3940.58,-0.001842481
3940.46,-0.001770812
3940.339,-0.001724116
3940.219,-0.001719825
3940.098,-0.001764674
3939.978,-0.001853599
3939.857,-0.001970939
3939.736,-0.002097348
3939.616,-0.002214029
3939.495,-0.002307543
3939.375,-0.002371148
3939.254,-0.002402749
3939.134,-0.002402914
3939.013,-0.002373421
3938.893,-0.002317694
3938.772,-0.002241621
3938.652,-0.002154621
3938.531,-0.002069253
3938.411,-0.001998051
3938.29,-0.001949961
3938.17,-0.00192753
3938.049,-0.001926342
3937.928,-0.001937327
3937.808,-0.001949598
3937.688,-0.001955667
3937.567,-0.001952567
3937.446,-0.00194244
3937.326,-0.001929905
3937.205,-0.00191958
3937.085,-0.001914797
3936.964,-0.001916182
3936.844,-0.001923374
3936.723,-0.001935513
3936.603,-0.001951907
3936.482,-0.001972127
3936.362,-0.001994852
3936.241,-0.002018236
3936.121,-0.00203987
3936,-0.002058173
3935.88,-0.00207331
3935.759,-0.002086994
3935.638,-0.002101701
3935.518,-0.002119078
3935.397,-0.002138301
3935.277,-0.00215683
3935.156,-0.002171765
3935.036,-0.002182183
3934.915,-0.002190063
3934.795,-0.002200744
3934.674,-0.002219337
3934.554,-0.002247818
3934.433,-0.002282098
3934.313,-0.002312321
3934.192,-0.00232679
3934.072,-0.002317232
3933.951,-0.002283449
3933.831,-0.00223483
3933.71,-0.00218759
3933.589,-0.002159995
3933.469,-0.002164611
3933.348,-0.002204601
3933.228,-0.002272902
3933.107,-0.002357043
3932.987,-0.00244219
3932.866,-0.002516844
3932.746,-0.002574753
3932.625,-0.002614113
3932.505,-0.002634236
3932.384,-0.002633972
3932.264,-0.002610358
3932.143,-0.002561677
3932.023,-0.0024896
3931.902,-0.002401991
3931.781,-0.002311563
3931.661,-0.002231896
3931.541,-0.002174205
3931.42,-0.002141961
3931.299,-0.002130783
3931.179,-0.002129695
3931.058,-0.002125574
3930.938,-0.002107933
3930.817,-0.002070902
3930.697,-0.002015004
3930.576,-0.001945409
3930.456,-0.001870986
3930.335,-0.001801137
3930.215,-0.001745303
3930.094,-0.001711971
3929.974,-0.001707251
3929.853,-0.00173296
3929.732,-0.001785628
3929.612,-0.001854655
3929.491,-0.001925254
3929.371,-0.001980504
3929.25,-0.002008638
3929.13,-0.00200534
3929.009,-0.001976283
3928.889,-0.001933633
3928.768,-0.001891902
3928.648,-0.001862441
3928.527,-0.001849013
3928.407,-0.00184799
3928.286,-0.001851026
3928.166,-0.001850201
3928.045,-0.001840204
3927.925,-0.001820374
3927.804,-0.001793251
3927.684,-0.001762067
3927.563,-0.001729066
3927.442,-0.001695105
3927.322,-0.001662066
3927.201,-0.001634405
3927.081,-0.001620541
3926.96,-0.001631995
3926.84,-0.001678933
3926.719,-0.0017654
3926.599,-0.001886921
3926.478,-0.00203024
3926.358,-0.002176777
3926.237,-0.002305961
3926.117,-0.002402848
3925.996,-0.002459323
3925.875,-0.002474511
3925.755,-0.002453919
3925.635,-0.002405846
3925.514,-0.002340302
3925.394,-0.002266969
3925.273,-0.002195074
3925.152,-0.002133355
3925.032,-0.002087324
3924.911,-0.002059657
3924.791,-0.002048544
3924.67,-0.002049269
3924.55,-0.002055304
3924.429,-0.002062592
3924.309,-0.002070078
3924.188,-0.002079971
3924.068,-0.002095832
3923.947,-0.002119177
3923.827,-0.002146214
3923.706,-0.002169556
3923.585,-0.002181062
3923.465,-0.002175392
3923.344,-0.002154918
3923.224,-0.002130355
3923.104,-0.002117726
3922.983,-0.002132201
3922.862,-0.00218192
3922.742,-0.002264332
3922.621,-0.002367061
3922.501,-0.00247204
3922.38,-0.00256059
3922.26,-0.002619876
3922.139,-0.002645696
3922.019,-0.002640723
3921.898,-0.002611774
3921.778,-0.002567803
3921.657,-0.002517305
3921.537,-0.002467724
3921.416,-0.002426704
3921.295,-0.002400904
3921.175,-0.002395763
3921.054,-0.002411613
3920.934,-0.002442915
3920.813,-0.002478695
3920.693,-0.002503338
3920.572,-0.002502679
3920.452,-0.002467922
3920.331,-0.002399915
3920.211,-0.002307707
3920.09,-0.002205524
3919.97,-0.002108626
3919.849,-0.00202869
3919.729,-0.00197216
3919.608,-0.001941912
3919.488,-0.001938581
3919.367,-0.00196144
3919.247,-0.002007946
3919.126,-0.002071562
3919.005,-0.002141532
3918.885,-0.002202623
3918.764,-0.002240961
3918.644,-0.002248576
3918.523,-0.002228336
3918.403,-0.002193458
3918.282,-0.002164578
3918.162,-0.002161875
3918.041,-0.002196821
3917.921,-0.002267529
3917.8,-0.002358889
3917.68,-0.002448318
3917.559,-0.002513286
3917.438,-0.002539278
3917.318,-0.002524091
3917.198,-0.00247685
3917.077,-0.002411712
3916.957,-0.002341389
3916.836,-0.002273858
3916.715,-0.002212513
3916.595,-0.002158182
3916.474,-0.002112055
3916.354,-0.002077498
3916.233,-0.002057184
3916.113,-0.002050555
3915.992,-0.002051677
3915.872,-0.002050226
3915.751,-0.00203433
3915.631,-0.001996897
3915.51,-0.001938449
3915.39,-0.001869139
3915.269,-0.001804074
3915.148,-0.001757579
3915.028,-0.001738538
3914.907,-0.001746161
3914.787,-0.001771835
3914.667,-0.001802457
3914.546,-0.001827006
3914.425,-0.001839445
3914.305,-0.001839808
3914.184,-0.00183278
3914.064,-0.001823509
3913.943,-0.001815722
3913.823,-0.001810508
3913.702,-0.001806648
3913.582,-0.001803513
3913.461,-0.001800708
3913.341,-0.001799751
3913.22,-0.001801302
3913.1,-0.001805625
3912.979,-0.001810871
3912.858,-0.001815161
3912.738,-0.0018178
3912.617,-0.001819945
3912.497,-0.001825323
3912.376,-0.00183697
3912.256,-0.001855843
3912.135,-0.00187897
3912.015,-0.001900282
3911.894,-0.001912389
3911.774,-0.001911135
3911.653,-0.001897445
3911.533,-0.001878211
3911.412,-0.0018632
3911.292,-0.001861847
3911.171,-0.001880158
3911.051,-0.001917799
3910.93,-0.001970873
3910.81,-0.002032912
3910.689,-0.002098568
3910.568,-0.002164578
3910.448,-0.002228534
3910.327,-0.002287042
3910.207,-0.002333447
3910.086,-0.002357604
3909.966,-0.002348574
3909.845,-0.002299006
3909.725,-0.002208392
3909.604,-0.002085741
3909.484,-0.001948246
3909.363,-0.001817899
3909.243,-0.001713852
3909.122,-0.001649787
3909.001,-0.001630246
3908.881,-0.001650909
3908.76,-0.001701112
3908.64,-0.001767017
3908.519,-0.001836245
3908.399,-0.001898764
3908.278,-0.001948608
3908.158,-0.001983704
3908.037,-0.00200567
3907.917,-0.002018236
3907.796,-0.00202592
3907.676,-0.002033044
3907.555,-0.002042212
3907.435,-0.002053655
3907.314,-0.002065758
3907.194,-0.002076937
3907.073,-0.002086566
3906.953,-0.00209626
3906.832,-0.002110109
3906.711,-0.002132663
3906.591,-0.002167249
3906.47,-0.002212941
3906.35,-0.002265584
3906.229,-0.00231832
3906.109,-0.002365018
3905.988,-0.002403573
3905.868,-0.002437314
3905.747,-0.002472962
3905.627,-0.00251915
3905.506,-0.002581374
3905.386,-0.002659759
3905.265,-0.002748105
3905.145,-0.00283594
3905.024,-0.00291135
3904.904,-0.002962822
3904.783,-0.002982205
3904.662,-0.00296404
3904.542,-0.002906874
3904.421,-0.002812304
3904.301,-0.002684852
3904.18,-0.002533612
3904.06,-0.002370785
3903.939,-0.002210832
3903.819,-0.002068858
3903.698,-0.001958042
3903.578,-0.001887284
3903.457,-0.001862078
3903.337,-0.001883523
3903.216,-0.001948971
3903.096,-0.00205349
3902.975,-0.002188975
3902.854,-0.002344619
3902.734,-0.002505413
3902.614,-0.002653929
3902.493,-0.00277079
3902.372,-0.002838014
3902.252,-0.002843874
3902.131,-0.002787021
3902.011,-0.00267955
3901.89,-0.002542736
3901.77,-0.002404001
3901.649,-0.002288426
3901.529,-0.002210634
3901.408,-0.00217437
3901.288,-0.002173513
3901.167,-0.002197085
3901.047,-0.002232918
3900.926,-0.002271616
3900.805,-0.002308004
3900.685,-0.00234106
3900.564,-0.002371971
3900.444,-0.002402947
3900.323,-0.002435073
3900.203,-0.0024669
3900.082,-0.002494146
3899.962,-0.00250874
3899.841,-0.002501493
3899.721,-0.002464429
3899.6,-0.002393391
3899.48,-0.002292414
3899.359,-0.002173018
3899.239,-0.002052699
3899.118,-0.001947982
3898.998,-0.001869765
3898.877,-0.001819483
3898.757,-0.001790512
3898.636,-0.001771736
3898.515,-0.00175121
3898.395,-0.001722598
3898.274,-0.001685369
3898.154,-0.001645232
3898.033,-0.001609449
3897.913,-0.001584591
3897.792,-0.001573762
3897.672,-0.001576139
3897.551,-0.001589345
3897.431,-0.001610703
3897.31,-0.001638531
3897.19,-0.001671044
3897.069,-0.001704611
3896.948,-0.001733323
3896.828,-0.001748009
3896.708,-0.00174164
3896.587,-0.001712301
3896.467,-0.001666819
3896.346,-0.001621069
3896.225,-0.001593933
3896.105,-0.001603309
3895.984,-0.001657049
3895.864,-0.001750517
3895.743,-0.001867027
3895.623,-0.00198499
3895.502,-0.002084752
3895.382,-0.002154357
3895.261,-0.002192173
3895.141,-0.002203678
3895.02,-0.002197216
3894.9,-0.002178326
3894.779,-0.002148192
3894.658,-0.002105229
3894.538,-0.002048742
3894.417,-0.001982978
3894.297,-0.001917799
3894.177,-0.001865741
3894.056,-0.001838092
3893.935,-0.001840567
3893.815,-0.001870821
3893.694,-0.001920834
3893.574,-0.001981131
3893.453,-0.002045048
3893.333,-0.002110274
3893.212,-0.002178062
3893.092,-0.002250125
3892.971,-0.002325735
3892.851,-0.002400278
3892.73,-0.00246802
3892.61,-0.002523729
3892.489,-0.00256698
3892.368,-0.002600379
3892.248,-0.002628143
3892.127,-0.002651427
3892.007,-0.002664369
3891.886,-0.002654819
3891.766,-0.002607328
3891.645,-0.002511178
3891.525,-0.002367292
3891.404,-0.002190887
3891.284,-0.00200844
3891.163,-0.001849442
3891.043,-0.00173395
3890.922,-0.001667215
3890.802,-0.001640248
3890.681,-0.001637046
3890.561,-0.001640512
3890.44,-0.001639587
3890.32,-0.001630081
3890.199,-0.001613938
3890.078,-0.001594528
3889.958,-0.001574257
3889.837,-0.001554118
3889.717,-0.001534705
3889.596,-0.001517998
3889.476,-0.001508686
